# Matter power spectrum P(k) at redshift z=0
# for k=1.04734e-05 to 104.842 h/Mpc,
# number of wavenumbers equal to 132
#    1:k (h/Mpc)              2:P (Mpc/h)^3        
       1.047341826327e-05       4.811028024802e+01 
       1.318525239998e-05       6.007961807422e+01 
       1.659924930725e-05       7.502674249877e+01 
       2.089721676961e-05       9.369240896285e+01 
       2.630803722703e-05       1.170015566408e+02 
       3.311985659953e-05       1.461091013127e+02 
       4.169542910813e-05       1.824569210038e+02 
       5.249143525989e-05       2.278449383064e+02 
       6.608280175022e-05       2.845194904457e+02 
       8.319331840591e-05       3.552830963335e+02 
       1.047341826327e-04       4.436301844532e+02 
       1.318525239998e-04       5.539140992352e+02 
       1.659924930725e-04       6.915508303891e+02 
       2.089721676961e-04       8.632641954621e+02 
       2.630803722703e-04       1.077374876817e+03 
       3.311985659953e-04       1.344130578561e+03 
       4.169542910813e-04       1.676065793930e+03 
       5.249143525989e-04       2.088367909312e+03 
       6.608280175022e-04       2.599213187720e+03 
       8.319331840591e-04       3.230014499659e+03 
       1.047341826327e-03       4.005450874781e+03 
       1.318525239998e-03       4.952988870131e+03 
       1.659924930725e-03       6.101367396341e+03 
       2.089721676961e-03       7.478444336288e+03 
       2.630803722703e-03       9.106644754756e+03 
       3.311985659953e-03       1.099670053520e+04 
       4.169542910813e-03       1.313867602162e+04 
       5.249143525989e-03       1.549006041431e+04 
       6.608280175022e-03       1.796199810824e+04 
       8.319331840591e-03       2.040353051384e+04 
       1.047341826327e-02       2.258442867958e+04 
       1.318525239998e-02       2.418851106924e+04 
       1.659924930723e-02       2.482674448280e+04 
       2.089721661134e-02       2.411437451608e+04 
       2.630791517276e-02       2.187188083986e+04 
       3.310278266809e-02       1.843647438831e+04 
       4.112178767827e-02       1.498528455727e+04 
       4.790628827187e-02       1.299983414780e+04 
       5.282242665316e-02       1.202518561700e+04 
       5.687266276783e-02       1.141824544751e+04 
       6.048713924457e-02       1.096072029427e+04 
       6.385726918489e-02       1.056050115986e+04 
       6.708422356808e-02       1.017318085892e+04 
       7.022860457073e-02       9.772615204630e+03 
       7.333018959121e-02       9.348594374686e+03 
       7.641699559472e-02       8.897164792066e+03 
       7.950991500399e-02       8.421816548978e+03 
       8.262529000619e-02       7.931908814515e+03 
       8.577643711244e-02       7.439258514171e+03 
       8.897459779322e-02       6.957174465768e+03 
       9.222955666873e-02       6.499772407879e+03 
       9.555005766263e-02       6.078759858973e+03 
       9.894409227649e-02       5.704193856196e+03 
       1.024191040350e-01       5.381514051855e+03 
       1.059821362671e-01       5.112086531302e+03 
       1.096399405354e-01       4.892659684221e+03 
       1.133990570790e-01       4.715154509653e+03 
       1.172658749381e-01       4.568189732420e+03 
       1.212466770802e-01       4.436808400436e+03 
       1.253476743186e-01       4.304848463231e+03 
       1.295750308151e-01       4.157822503154e+03 
       1.339348832883e-01       3.985326419516e+03 
       1.384333556066e-01       3.783360338470e+03 
       1.430765701517e-01       3.555480628480e+03 
       1.478706571406e-01       3.313679806879e+03 
       1.528217629719e-01       3.073135935163e+03 
       1.579360585786e-01       2.850940926742e+03 
       1.632197487229e-01       2.660072406138e+03 
       1.686790831333e-01       2.506741564528e+03 
       1.743203703677e-01       2.389160075964e+03 
       1.801499952706e-01       2.297174423466e+03 
       1.861744408854e-01       2.216438331958e+03 
       1.924003156778e-01       2.130325996965e+03 
       1.988343869272e-01       2.026288269988e+03 
       2.054836211617e-01       1.902079969041e+03 
       2.123552325376e-01       1.766637568118e+03 
       2.194567401293e-01       1.634435763624e+03 
       2.267960351874e-01       1.518376438278e+03 
       2.343814595750e-01       1.425247653631e+03 
       2.422218968067e-01       1.353341808204e+03 
       2.503268774207e-01       1.292571399737e+03 
       2.587067008345e-01       1.230257571157e+03 
       2.673725763996e-01       1.158847066886e+03 
       2.763367871246e-01       1.079350513433e+03 
       2.856128805324e-01       1.000369097801e+03 
       2.952158924401e-01       9.315295889368e+02 
       3.051626111926e-01       8.757759668993e+02 
       3.154718922142e-01       8.281826218327e+02 
       3.261650358618e-01       7.811888021406e+02 
       3.372662458041e-01       7.302795901451e+02 
       3.488031909613e-01       6.782442128754e+02 
       3.608077021259e-01       6.305524725548e+02 
       3.733166457820e-01       5.897787469762e+02 
       3.863730339853e-01       5.528194342104e+02 
       4.000274529770e-01       5.157070021787e+02 
       4.143399285777e-01       4.782424755706e+02 
       4.293823999925e-01       4.432254189019e+02 
       4.452420566752e-01       4.116488329734e+02 
       4.620259246723e-01       3.817918381260e+02 
       4.798673037815e-01       3.521961033406e+02 
       4.989350181070e-01       3.239197675866e+02 
       5.194470707518e-01       2.976898413459e+02 
       5.416914282095e-01       2.721767837223e+02 
       5.660588009222e-01       2.474388076261e+02 
       5.930965292474e-01       2.237908945975e+02 
       6.236015761098e-01       2.005858843726e+02 
       6.587904759309e-01       1.778765015505e+02 
       7.006315492567e-01       1.552524177691e+02 
       7.525461085526e-01       1.324404633449e+02 
       8.210079805222e-01       1.089372157862e+02 
       9.193237378563e-01       8.429151875290e+01 
       1.074684017807e+00       5.888013185216e+01 
       1.322179872275e+00       3.628573608565e+01 
       1.661679345586e+00       2.107463262218e+01 
       2.091875610101e+00       1.208227796260e+01 
       2.633515157138e+00       6.868733163186e+00 
       3.315399153555e+00       3.876062914784e+00 
       4.173840244652e+00       2.172518525133e+00 
       5.254553548761e+00       1.210192343241e+00 
       6.615090990169e+00       6.702947623334e-01 
       8.327906148854e+00       3.693739448035e-01 
       1.048421267783e+01       2.025742944189e-01 
       1.319884176277e+01       1.106055310700e-01 
       1.661635730141e+01       6.014451623742e-02 
       2.091875445819e+01       3.257949595606e-02 
       2.633515157050e+01       1.758398584200e-02 
       3.315399153555e+01       9.456894090817e-03 
       4.173840244652e+01       5.068182565229e-03 
       5.254553548761e+01       2.706350457303e-03 
       6.615090990169e+01       1.439482605159e-03 
       8.327906148854e+01       7.621798555954e-04 
       1.048421267783e+02       4.012954175491e-04 
